# Angle [deg]	Magnitude [dB]
-9.000000000000000000e+01	-4.099422335463876266e+01
-8.990000000000000568e+01	-4.099243457882218422e+01
-8.980000000000001137e+01	-4.098707046475887239e+01
-8.970000000000001705e+01	-4.097813764352945753e+01
-8.960000000000002274e+01	-4.096564713676614389e+01
-8.950000000000002842e+01	-4.094961431166601784e+01
-8.940000000000003411e+01	-4.093005881855408035e+01
-8.930000000000003979e+01	-4.090700451152702755e+01
-8.920000000000004547e+01	-4.088047935284372869e+01
-8.910000000000005116e+01	-4.085051530186760971e+01
-8.900000000000005684e+01	-4.081714818947163792e+01
-8.890000000000006253e+01	-4.078041757893400643e+01
-8.880000000000006821e+01	-4.074036661442778495e+01
-8.870000000000007390e+01	-4.069704185830326537e+01
-8.860000000000007958e+01	-4.065049311840631674e+01
-8.850000000000008527e+01	-4.060077326672085718e+01
-8.840000000000009095e+01	-4.054793805067197354e+01
-8.830000000000009663e+01	-4.049204589840751822e+01
-8.820000000000010232e+01	-4.043315771940485348e+01
-8.810000000000010800e+01	-4.037133670171583333e+01
-8.800000000000011369e+01	-4.030664810713781065e+01
-8.790000000000011937e+01	-4.023915906555546940e+01
-8.780000000000012506e+01	-4.016893836965172682e+01
-8.770000000000013074e+01	-4.009605627111963599e+01
-8.760000000000013642e+01	-4.002058427942851893e+01
-8.750000000000014211e+01	-3.994259496414581889e+01
-8.740000000000014779e+01	-3.986216176169648406e+01
-8.730000000000015348e+01	-3.977935878739680220e+01
-8.720000000000015916e+01	-3.969426065347941801e+01
-8.710000000000016485e+01	-3.960694229374783504e+01
-8.700000000000017053e+01	-3.951747879542276110e+01
-8.690000000000017621e+01	-3.942594523862722156e+01
-8.680000000000018190e+01	-3.933241654389424014e+01
-8.670000000000018758e+01	-3.923696732799484010e+01
-8.660000000000019327e+01	-3.913967176829052619e+01
-8.650000000000019895e+01	-3.904060347575463652e+01
-8.640000000000020464e+01	-3.893983537673911854e+01
-8.630000000000021032e+01	-3.883743960347916158e+01
-8.620000000000021600e+01	-3.873348739329480139e+01
-8.610000000000022169e+01	-3.862804899637150413e+01
-8.600000000000022737e+01	-3.852119359197905624e+01
-8.590000000000023306e+01	-3.841298921291148361e+01
-8.580000000000023874e+01	-3.830350267793819796e+01
-8.570000000000024443e+01	-3.819279953198159205e+01
-8.560000000000025011e+01	-3.808094399374162009e+01
-8.550000000000025580e+01	-3.796799891044999242e+01
-8.540000000000026148e+01	-3.785402571943056671e+01
-8.530000000000026716e+01	-3.773908441611432352e+01
-8.520000000000027285e+01	-3.762323352817187327e+01
-8.510000000000027853e+01	-3.750653009539582428e+01
-8.500000000000028422e+01	-3.738902965498727582e+01
-8.490000000000028990e+01	-3.727078623188111095e+01
-8.480000000000029559e+01	-3.715185233376634244e+01
-8.470000000000030127e+01	-3.703227895044722118e+01
-8.460000000000030695e+01	-3.691211555721348958e+01
-8.450000000000031264e+01	-3.679141012188698312e+01
-8.440000000000031832e+01	-3.667020911522611470e+01
-8.430000000000032401e+01	-3.654855752438338357e+01
-8.420000000000032969e+01	-3.642649886912080603e+01
-8.410000000000033538e+01	-3.630407522050280988e+01
-8.400000000000034106e+01	-3.618132722180060767e+01
-8.390000000000034674e+01	-3.605829411135346874e+01
-8.380000000000035243e+01	-3.593501374715151542e+01
-8.370000000000035811e+01	-3.581152263291266280e+01
-8.360000000000036380e+01	-3.568785594544668527e+01
-8.350000000000036948e+01	-3.556404756310640636e+01
-8.340000000000037517e+01	-3.544013009514738144e+01
-8.330000000000038085e+01	-3.531613491182562115e+01
-8.320000000000038654e+01	-3.519209217507309972e+01
-8.310000000000039222e+01	-3.506803086961417648e+01
-8.300000000000039790e+01	-3.494397883438449526e+01
-8.290000000000040359e+01	-3.481996279413247919e+01
-8.280000000000040927e+01	-3.469600839109764223e+01
-8.270000000000041496e+01	-3.457214021665933501e+01
-8.260000000000042064e+01	-3.444838184286937377e+01
-8.250000000000042633e+01	-3.432475585378880112e+01
-8.240000000000043201e+01	-3.420128387655190494e+01
-8.230000000000043769e+01	-3.407798661209508140e+01
-8.220000000000044338e+01	-3.395488386549531867e+01
-8.210000000000044906e+01	-3.383199457586316328e+01
-8.200000000000045475e+01	-3.370933684575257416e+01
-8.190000000000046043e+01	-3.358692797004324859e+01
-8.180000000000046612e+01	-3.346478446426882414e+01
-8.170000000000047180e+01	-3.334292209236080851e+01
-8.160000000000047748e+01	-3.322135589378498821e+01
-8.150000000000048317e+01	-3.310010021005512471e+01
-8.140000000000048885e+01	-3.297916871060513699e+01
-8.130000000000049454e+01	-3.285857441801469747e+01
-8.120000000000050022e+01	-3.273832973257343326e+01
-8.110000000000050591e+01	-3.261844645618562311e+01
-8.100000000000051159e+01	-3.249893581560915123e+01
-8.090000000000051728e+01	-3.237980848502915876e+01
-8.080000000000052296e+01	-3.226107460797197035e+01
-8.070000000000052864e+01	-3.214274381855894802e+01
-8.060000000000053433e+01	-3.202482526210864222e+01
-8.050000000000054001e+01	-3.190732761509527649e+01
-8.040000000000054570e+01	-3.179025910446947023e+01
-8.030000000000055138e+01	-3.167362752635202128e+01
-8.020000000000055707e+01	-3.155744026411338155e+01
-8.010000000000056275e+01	-3.144170430584716769e+01
-8.000000000000056843e+01	-3.132642626125046093e+01
-7.990000000000057412e+01	-3.121161237792542664e+01
-7.980000000000057980e+01	-3.109726855711407723e+01
-7.970000000000058549e+01	-3.098340036887848115e+01
-7.960000000000059117e+01	-3.087001306674279988e+01
-7.950000000000059686e+01	-3.075711160180936687e+01
-7.940000000000060254e+01	-3.064470063636347419e+01
-7.930000000000060822e+01	-3.053278455698059446e+01
-7.920000000000061391e+01	-3.042136748715135397e+01
-7.910000000000061959e+01	-3.031045329943746225e+01
-7.900000000000062528e+01	-3.020004562717293339e+01
-7.890000000000063096e+01	-3.009014787572492367e+01
-7.880000000000063665e+01	-2.998076323332799831e+01
-7.870000000000064233e+01	-2.987189468150462801e+01
-7.860000000000064801e+01	-2.976354500508729828e+01
-7.850000000000065370e+01	-2.965571680185301062e+01
-7.840000000000065938e+01	-2.954841249178605267e+01
-7.830000000000066507e+01	-2.944163432597845187e+01
-7.820000000000067075e+01	-2.933538439518363461e+01
-7.810000000000067644e+01	-2.922966463803426507e+01
-7.800000000000068212e+01	-2.912447684893513866e+01
-7.790000000000068781e+01	-2.901982268564504608e+01
-7.780000000000069349e+01	-2.891570367655679519e+01
-7.770000000000069917e+01	-2.881212122768711836e+01
-7.760000000000070486e+01	-2.870907662938817850e+01
-7.750000000000071054e+01	-2.860657106278907946e+01
-7.740000000000071623e+01	-2.850460560598030568e+01
-7.730000000000072191e+01	-2.840318123994622113e+01
-7.720000000000072760e+01	-2.830229885426122394e+01
-7.710000000000073328e+01	-2.820195925255405456e+01
-7.700000000000073896e+01	-2.810216315774999174e+01
-7.690000000000074465e+01	-2.800291121710229447e+01
-7.680000000000075033e+01	-2.790420400701663795e+01
-7.670000000000075602e+01	-2.780604203768166371e+01
-7.660000000000076170e+01	-2.770842575750836900e+01
-7.650000000000076739e+01	-2.761135555739099345e+01
-7.640000000000077307e+01	-2.751483177479123654e+01
-7.630000000000077875e+01	-2.741885469765803407e+01
-7.620000000000078444e+01	-2.732342456818534515e+01
-7.610000000000079012e+01	-2.722854158641752420e+01
-7.600000000000079581e+01	-2.713420591370689294e+01
-7.590000000000080149e+01	-2.704041767602961244e+01
-7.580000000000080718e+01	-2.694717696716656263e+01
-7.570000000000081286e+01	-2.685448385175432051e+01
-7.560000000000081855e+01	-2.676233836821182877e+01
-7.550000000000082423e+01	-2.667074053154703961e+01
-7.540000000000082991e+01	-2.657969033605005649e+01
-7.530000000000083560e+01	-2.648918775787702629e+01
-7.520000000000084128e+01	-2.639923275752831344e+01
-7.510000000000084697e+01	-2.630982528222776651e+01
-7.500000000000085265e+01	-2.622096526820440232e+01
-7.490000000000085834e+01	-2.613265264288399692e+01
-7.480000000000086402e+01	-2.604488732699106990e+01
-7.470000000000086970e+01	-2.595766923656873360e+01
-7.460000000000087539e+01	-2.587099828491639641e+01
-7.450000000000088107e+01	-2.578487438445175428e+01
-7.440000000000088676e+01	-2.569929744849951092e+01
-7.430000000000089244e+01	-2.561426739300951994e+01
-7.420000000000089813e+01	-2.552978413820827797e+01
-7.410000000000090381e+01	-2.544584761018639796e+01
-7.400000000000090949e+01	-2.536245774242553708e+01
-7.390000000000091518e+01	-2.527961447726663735e+01
-7.380000000000092086e+01	-2.519731776732313833e+01
-7.370000000000092655e+01	-2.511556757684163088e+01
-7.360000000000093223e+01	-2.503436388301114590e+01
-7.350000000000093792e+01	-2.495370667722610492e+01
-7.340000000000094360e+01	-2.487359596630228253e+01
-7.330000000000094929e+01	-2.479403177365059108e+01
-7.320000000000095497e+01	-2.471501414040880107e+01
-7.310000000000096065e+01	-2.463654312653476097e+01
-7.300000000000096634e+01	-2.455861881186238094e+01
-7.290000000000097202e+01	-2.448124129712244823e+01
-7.280000000000097771e+01	-2.440441070493005071e+01
-7.270000000000098339e+01	-2.432812718074070091e+01
-7.260000000000098908e+01	-2.425239089377675938e+01
-7.250000000000099476e+01	-2.417720203792535472e+01
-7.240000000000100044e+01	-2.410256083261030824e+01
-7.230000000000100613e+01	-2.402846752363871374e+01
-7.220000000000101181e+01	-2.395492238402459151e+01
-7.210000000000101750e+01	-2.388192571478998616e+01
-7.200000000000102318e+01	-2.380947784574609472e+01
-7.190000000000102887e+01	-2.373757913625480498e+01
-7.180000000000103455e+01	-2.366622997597236377e+01
-7.170000000000104023e+01	-2.359543078557670981e+01
-7.160000000000104592e+01	-2.352518201747941262e+01
-7.150000000000105160e+01	-2.345548415652286423e+01
-7.140000000000105729e+01	-2.338633772066551586e+01
-7.130000000000106297e+01	-2.331774326165426459e+01
-7.120000000000106866e+01	-2.324970136568669332e+01
-7.110000000000107434e+01	-2.318221265406335974e+01
-7.100000000000108002e+01	-2.311527778383155862e+01
-7.090000000000108571e+01	-2.304889744842135357e+01
-7.080000000000109139e+01	-2.298307237827508587e+01
-7.070000000000109708e+01	-2.291780334147113507e+01
-7.060000000000110276e+01	-2.285309114434314637e+01
-7.050000000000110845e+01	-2.278893663209506926e+01
-7.040000000000111413e+01	-2.272534068941390473e+01
-7.030000000000111982e+01	-2.266230424108008634e+01
-7.020000000000112550e+01	-2.259982825257671379e+01
-7.010000000000113118e+01	-2.253791373069913107e+01
-7.000000000000113687e+01	-2.247656172416428788e+01
-6.990000000000114255e+01	-2.241577332422222568e+01
-6.980000000000114824e+01	-2.235554966526965615e+01
-6.970000000000115392e+01	-2.229589192546661280e+01
-6.960000000000115961e+01	-2.223680132735723092e+01
-6.950000000000116529e+01	-2.217827913849482968e+01
-6.940000000000117097e+01	-2.212032667207331826e+01
-6.930000000000117666e+01	-2.206294528756416895e+01
-6.920000000000118234e+01	-2.200613639136095756e+01
-6.910000000000118803e+01	-2.194990143743186906e+01
-6.900000000000119371e+01	-2.189424192798083624e+01
-6.890000000000119940e+01	-2.183915941411821748e+01
-6.880000000000120508e+01	-2.178465549654196565e+01
-6.870000000000121076e+01	-2.173073182622966115e+01
-6.860000000000121645e+01	-2.167739010514302578e+01
-6.850000000000122213e+01	-2.162463208694457251e+01
-6.840000000000122782e+01	-2.157245957772826372e+01
-6.830000000000123350e+01	-2.152087443676467515e+01
-6.820000000000123919e+01	-2.146987857726112736e+01
-6.810000000000124487e+01	-2.141947396713801410e+01
-6.800000000000125056e+01	-2.136966262982245723e+01
-6.790000000000125624e+01	-2.132044664505934151e+01
-6.780000000000126192e+01	-2.127182814974140967e+01
-6.770000000000126761e+01	-2.122380933875918529e+01
-6.760000000000127329e+01	-2.117639246587091861e+01
-6.750000000000127898e+01	-2.112957984459486482e+01
-6.740000000000128466e+01	-2.108337384912340795e+01
-6.730000000000129035e+01	-2.103777691526124016e+01
-6.720000000000129603e+01	-2.099279154138763914e+01
-6.710000000000130171e+01	-2.094842028944472645e+01
-6.700000000000130740e+01	-2.090466578595206215e+01
-6.690000000000131308e+01	-2.086153072304918510e+01
-6.680000000000131877e+01	-2.081901785956713269e+01
-6.670000000000132445e+01	-2.077713002212963644e+01
-6.660000000000133014e+01	-2.073587010628607885e+01
-6.650000000000133582e+01	-2.069524107767666266e+01
-6.640000000000134150e+01	-2.065524597323145173e+01
-6.630000000000134719e+01	-2.061588790240438129e+01
-6.620000000000135287e+01	-2.057717004844413111e+01
-6.610000000000135856e+01	-2.053909566970244072e+01
-6.600000000000136424e+01	-2.050166810098200187e+01
-6.590000000000136993e+01	-2.046489075492541687e+01
-6.580000000000137561e+01	-2.042876712344612855e+01
-6.570000000000138130e+01	-2.039330077920396178e+01
-6.560000000000138698e+01	-2.035849537712606150e+01
-6.550000000000139266e+01	-2.032435465597555080e+01
-6.540000000000139835e+01	-2.029088243996948648e+01
-6.530000000000140403e+01	-2.025808264044805540e+01
-6.520000000000140972e+01	-2.022595925759714675e+01
-6.510000000000141540e+01	-2.019451638222587420e+01
-6.500000000000142109e+01	-2.016375819760200727e+01
-6.490000000000142677e+01	-2.013368898134651630e+01
-6.480000000000143245e+01	-2.010431310739054211e+01
-6.470000000000143814e+01	-2.007563504799651355e+01
-6.460000000000144382e+01	-2.004765937584616964e+01
-6.450000000000144951e+01	-2.002039076619821856e+01
-6.440000000000145519e+01	-1.999383399911820902e+01
-6.430000000000146088e+01	-1.996799396178360197e+01
-6.420000000000146656e+01	-1.994287565086690961e+01
-6.410000000000147224e+01	-1.991848417500025192e+01
-6.400000000000147793e+01	-1.989482475732435418e+01
-6.390000000000148361e+01	-1.987190273812547048e+01
-6.380000000000148930e+01	-1.984972357756400996e+01
-6.370000000000149498e+01	-1.982829285849844325e+01
-6.360000000000150067e+01	-1.980761628940821595e+01
-6.350000000000150635e+01	-1.978769970742027340e+01
-6.340000000000151203e+01	-1.976854908144320788e+01
-6.330000000000151772e+01	-1.975017051541332691e+01
-6.320000000000152340e+01	-1.973257025165787937e+01
-6.310000000000152909e+01	-1.971575467438005091e+01
-6.300000000000153477e+01	-1.969973031327103641e+01
-6.290000000000154046e+01	-1.968450384725474578e+01
-6.280000000000154614e+01	-1.967008210837060744e+01
-6.270000000000155183e+01	-1.965647208580112348e+01
-6.260000000000155751e+01	-1.964368093004969751e+01
-6.250000000000156319e+01	-1.963171595727616392e+01
-6.240000000000156888e+01	-1.962058465379651295e+01
-6.230000000000157456e+01	-1.961029468075468785e+01
-6.220000000000158025e+01	-1.960085387897362352e+01
-6.210000000000158593e+01	-1.959227027399452226e+01
-6.200000000000159162e+01	-1.958455208131205794e+01
-6.190000000000159730e+01	-1.957770771181566971e+01
-6.180000000000160298e+01	-1.957174577744554966e+01
-6.170000000000160867e+01	-1.956667509707421360e+01
-6.160000000000161435e+01	-1.956250470262389385e+01
-6.150000000000162004e+01	-1.955924384543134664e+01
-6.140000000000162572e+01	-1.955690200287181568e+01
-6.130000000000163141e+01	-1.955548888525472861e+01
-6.120000000000163709e+01	-1.955501444300471547e+01
-6.110000000000164277e+01	-1.955548887414181536e+01
-6.100000000000164846e+01	-1.955692263207593840e+01
-6.090000000000165414e+01	-1.955932643373116520e+01
-6.080000000000165983e+01	-1.956271126801703275e+01
-6.070000000000166551e+01	-1.956708840466413335e+01
-6.060000000000167120e+01	-1.957246940344309749e+01
-6.050000000000167688e+01	-1.957886612378691993e+01
-6.040000000000168257e+01	-1.958629073483766447e+01
-6.030000000000168825e+01	-1.959475572594019965e+01
-6.020000000000169393e+01	-1.960427391760675064e+01
-6.010000000000169962e+01	-1.961485847297797847e+01
-6.000000000000170530e+01	-1.962652290980721048e+01
-5.990000000000171099e+01	-1.963928111299692958e+01
-5.980000000000171667e+01	-1.965314734771800431e+01
-5.970000000000172236e+01	-1.966813627314447643e+01
-5.960000000000172804e+01	-1.968426295683861582e+01
-5.950000000000173372e+01	-1.970154288982329049e+01
-5.940000000000173941e+01	-1.971999200238156646e+01
-5.930000000000174509e+01	-1.973962668062568326e+01
-5.920000000000175078e+01	-1.976046378388068803e+01
-5.910000000000175646e+01	-1.978252066293124756e+01
-5.900000000000176215e+01	-1.980581517918335521e+01
-5.890000000000176783e+01	-1.983036572479628035e+01
-5.880000000000177351e+01	-1.985619124384454537e+01
-5.870000000000177920e+01	-1.988331125457325399e+01
-5.860000000000178488e+01	-1.991174587281540909e+01
-5.850000000000179057e+01	-1.994151583664479688e+01
-5.840000000000179625e+01	-1.997264253234297016e+01
-5.830000000000180194e+01	-2.000514802176546070e+01
-5.820000000000180762e+01	-2.003905507119873874e+01
-5.810000000000181331e+01	-2.007438718180595316e+01
-5.800000000000181899e+01	-2.011116862176775655e+01
-5.790000000000182467e+01	-2.014942446023258782e+01
-5.780000000000183036e+01	-2.018918060320009289e+01
-5.770000000000183604e+01	-2.023046383147095639e+01
-5.760000000000184173e+01	-2.027330184080788200e+01
-5.750000000000184741e+01	-2.031772328446375653e+01
-5.740000000000185310e+01	-2.036375781824672160e+01
-5.730000000000185878e+01	-2.041143614830572517e+01
-5.720000000000186446e+01	-2.046079008183601644e+01
-5.710000000000187015e+01	-2.051185258092136721e+01
-5.700000000000187583e+01	-2.056465781974902995e+01
-5.690000000000188152e+01	-2.061924124545373971e+01
-5.680000000000188720e+01	-2.067563964287096923e+01
-5.670000000000189289e+01	-2.073389120350476844e+01
-5.660000000000189857e+01	-2.079403559904350018e+01
-5.650000000000190425e+01	-2.085611405978870891e+01
-5.640000000000190994e+01	-2.092016945839619524e+01
-5.630000000000191562e+01	-2.098624639936746306e+01
-5.620000000000192131e+01	-2.105439131477175607e+01
-5.610000000000192699e+01	-2.112465256672731329e+01
-5.600000000000193268e+01	-2.119708055722254514e+01
-5.590000000000193836e+01	-2.127172784591747501e+01
-5.580000000000194404e+01	-2.134864927663219802e+01
-5.570000000000194973e+01	-2.142790211330236616e+01
-5.560000000000195541e+01	-2.150954618626583326e+01
-5.550000000000196110e+01	-2.159364404983689667e+01
-5.540000000000196678e+01	-2.168026115223051775e+01
-5.530000000000197247e+01	-2.176946601901691025e+01
-5.520000000000197815e+01	-2.186133045142078757e+01
-5.510000000000198384e+01	-2.195592974093072414e+01
-5.500000000000198952e+01	-2.205334290185680146e+01
-5.490000000000199520e+01	-2.215365292366806216e+01
-5.480000000000200089e+01	-2.225694704516535438e+01
-5.470000000000200657e+01	-2.236331705279694404e+01
-5.460000000000201226e+01	-2.247285960571513996e+01
-5.450000000000201794e+01	-2.258567659050397936e+01
-5.440000000000202363e+01	-2.270187550888921635e+01
-5.430000000000202931e+01	-2.282156990218187786e+01
-5.420000000000203499e+01	-2.294487981671396426e+01
-5.410000000000204068e+01	-2.307193231511178055e+01
-5.400000000000204636e+01	-2.320286203893465071e+01
-5.390000000000205205e+01	-2.333781182900052187e+01
-5.380000000000205773e+01	-2.347693341064639583e+01
-5.370000000000206342e+01	-2.362038815225691479e+01
-5.360000000000206910e+01	-2.376834790666995190e+01
-5.350000000000207478e+01	-2.392099594657052108e+01
-5.340000000000208047e+01	-2.407852800676263172e+01
-5.330000000000208615e+01	-2.424115344831969665e+01
-5.320000000000209184e+01	-2.440909656212901879e+01
-5.310000000000209752e+01	-2.458259803235469221e+01
-5.300000000000210321e+01	-2.476191658395935491e+01
-5.290000000000210889e+01	-2.494733084278447066e+01
-5.280000000000211458e+01	-2.513914144197684664e+01
-5.270000000000212026e+01	-2.533767341498350945e+01
-5.260000000000212594e+01	-2.554327892321555993e+01
-5.250000000000213163e+01	-2.575634037617232508e+01
-5.240000000000213731e+01	-2.597727401380627299e+01
-5.230000000000214300e+01	-2.620653403582707952e+01
-5.220000000000214868e+01	-2.644461738132280360e+01
-5.210000000000215437e+01	-2.669206928561385084e+01
-5.200000000000216005e+01	-2.694948977113124755e+01
-5.190000000000216573e+01	-2.721754126729523549e+01
-5.180000000000217142e+01	-2.749695760357499097e+01
-5.170000000000217710e+01	-2.778855468383508409e+01
